x,theta
0.000000,-0.952578
0.000489,-0.952632
0.000977,-0.952687
0.001466,-0.952741
0.001954,-0.952795
0.002443,-0.952850
0.002931,-0.952904
0.003420,-0.952958
0.003908,-0.953013
0.004397,-0.953067
0.004885,-0.953121
0.005374,-0.953176
0.005862,-0.953230
0.006351,-0.953285
0.006839,-0.953339
0.007328,-0.953393
0.007816,-0.953448
0.008305,-0.953502
0.008793,-0.953556
0.009282,-0.953611
0.009770,-0.953665
0.010259,-0.953719
0.010747,-0.953774
0.011236,-0.953828
0.011724,-0.953882
0.012213,-0.953937
0.012702,-0.953991
0.013190,-0.954045
0.013679,-0.954100
0.014167,-0.954154
0.014656,-0.954208
0.015144,-0.954263
0.015633,-0.954317
0.016121,-0.954372
0.016610,-0.954426
0.017098,-0.954480
0.017587,-0.954535
0.018075,-0.954589
0.018564,-0.954643
0.019052,-0.954698
0.019541,-0.954752
0.020029,-0.954806
0.020518,-0.954861
0.021006,-0.954915
0.021495,-0.954969
0.021983,-0.955024
0.022472,-0.955078
0.022960,-0.955132
0.023449,-0.955187
0.023937,-0.955241
0.024426,-0.955295
0.024915,-0.955350
0.025403,-0.955404
0.025892,-0.955458
0.026380,-0.955513
0.026869,-0.955567
0.027357,-0.955622
0.027846,-0.955676
0.028334,-0.955730
0.028823,-0.955785
0.029311,-0.955839
0.029800,-0.955893
0.030288,-0.955948
0.030777,-0.956002
0.031265,-0.956056
0.031754,-0.956111
0.032242,-0.956165
0.032731,-0.956219
0.033219,-0.956274
0.033708,-0.956329
0.034196,-0.956385
0.034685,-0.956442
0.035173,-0.956498
0.035662,-0.956554
0.036150,-0.956610
0.036639,-0.956666
0.037128,-0.956722
0.037616,-0.956778
0.038105,-0.956834
0.038593,-0.956890
0.039082,-0.956946
0.039570,-0.957002
0.040059,-0.957058
0.040547,-0.957115
0.041036,-0.957171
0.041524,-0.957227
0.042013,-0.957283
0.042501,-0.957339
0.042990,-0.957395
0.043478,-0.957451
0.043967,-0.957507
0.044455,-0.957563
0.044944,-0.957619
0.045432,-0.957675
0.045921,-0.957731
0.046409,-0.957788
0.046898,-0.957844
0.047386,-0.957900
0.047875,-0.957956
0.048363,-0.958012
0.048852,-0.958068
0.049340,-0.958124
0.049829,-0.958180
0.050318,-0.958236
0.050806,-0.958292
0.051295,-0.958348
0.051783,-0.958404
0.052272,-0.958461
0.052760,-0.958517
0.053249,-0.958573
0.053737,-0.958629
0.054226,-0.958685
0.054714,-0.958741
0.055203,-0.958797
0.055691,-0.958853
0.056180,-0.958909
0.056668,-0.958965
0.057157,-0.959021
0.057645,-0.959077
0.058134,-0.959134
0.058622,-0.959190
0.059111,-0.959246
0.059599,-0.959302
0.060088,-0.959358
0.060576,-0.959414
0.061065,-0.959470
0.061553,-0.959526
0.062042,-0.959582
0.062531,-0.959638
0.063019,-0.959694
0.063508,-0.959750
0.063996,-0.959807
0.064485,-0.959863
0.064973,-0.959919
0.065462,-0.959975
0.065950,-0.960031
0.066439,-0.960087
0.066927,-0.960124
0.067416,-0.960146
0.067904,-0.960167
0.068393,-0.960188
0.068881,-0.960210
0.069370,-0.960231
0.069858,-0.960252
0.070347,-0.960274
0.070835,-0.960295
0.071324,-0.960316
0.071812,-0.960338
0.072301,-0.960359
0.072789,-0.960380
0.073278,-0.960401
0.073766,-0.960423
0.074255,-0.960444
0.074744,-0.960465
0.075232,-0.960487
0.075721,-0.960508
0.076209,-0.960529
0.076698,-0.960551
0.077186,-0.960572
0.077675,-0.960593
0.078163,-0.960614
0.078652,-0.960636
0.079140,-0.960657
0.079629,-0.960678
0.080117,-0.960700
0.080606,-0.960721
0.081094,-0.960742
0.081583,-0.960764
0.082071,-0.960785
0.082560,-0.960806
0.083048,-0.960827
0.083537,-0.960849
0.084025,-0.960870
0.084514,-0.960891
0.085002,-0.960913
0.085491,-0.960934
0.085979,-0.960955
0.086468,-0.960977
0.086957,-0.960998
0.087445,-0.961019
0.087934,-0.961040
0.088422,-0.961062
0.088911,-0.961083
0.089399,-0.961104
0.089888,-0.961126
0.090376,-0.961147
0.090865,-0.961168
0.091353,-0.961190
0.091842,-0.961211
0.092330,-0.961232
0.092819,-0.961254
0.093307,-0.961275
0.093796,-0.961296
0.094284,-0.961317
0.094773,-0.961339
0.095261,-0.961360
0.095750,-0.961381
0.096238,-0.961403
0.096727,-0.961424
0.097215,-0.961445
0.097704,-0.961467
0.098192,-0.961488
0.098681,-0.961509
0.099170,-0.961531
0.099658,-0.961552
0.100147,-0.961566
0.100635,-0.961563
0.101124,-0.961560
0.101612,-0.961558
0.102101,-0.961555
0.102589,-0.961552
0.103078,-0.961549
0.103566,-0.961547
0.104055,-0.961544
0.104543,-0.961541
0.105032,-0.961538
0.105520,-0.961536
0.106009,-0.961533
0.106497,-0.961530
0.106986,-0.961528
0.107474,-0.961525
0.107963,-0.961522
0.108451,-0.961519
0.108940,-0.961517
0.109428,-0.961514
0.109917,-0.961511
0.110405,-0.961508
0.110894,-0.961506
0.111383,-0.961503
0.111871,-0.961500
0.112360,-0.961497
0.112848,-0.961495
0.113337,-0.961492
0.113825,-0.961489
0.114314,-0.961486
0.114802,-0.961484
0.115291,-0.961481
0.115779,-0.961478
0.116268,-0.961475
0.116756,-0.961473
0.117245,-0.961470
0.117733,-0.961467
0.118222,-0.961465
0.118710,-0.961462
0.119199,-0.961459
0.119687,-0.961456
0.120176,-0.961454
0.120664,-0.961451
0.121153,-0.961448
0.121641,-0.961445
0.122130,-0.961443
0.122618,-0.961440
0.123107,-0.961437
0.123596,-0.961434
0.124084,-0.961432
0.124573,-0.961429
0.125061,-0.961426
0.125550,-0.961423
0.126038,-0.961421
0.126527,-0.961418
0.127015,-0.961415
0.127504,-0.961412
0.127992,-0.961410
0.128481,-0.961407
0.128969,-0.961404
0.129458,-0.961402
0.129946,-0.961399
0.130435,-0.961396
0.130923,-0.961393
0.131412,-0.961391
0.131900,-0.961388
0.132389,-0.961385
0.132877,-0.961382
0.133366,-0.961380
0.133854,-0.961349
0.134343,-0.961320
0.134831,-0.961292
0.135320,-0.961263
0.135809,-0.961234
0.136297,-0.961205
0.136786,-0.961177
0.137274,-0.961148
0.137763,-0.961119
0.138251,-0.961090
0.138740,-0.961062
0.139228,-0.961033
0.139717,-0.961004
0.140205,-0.960975
0.140694,-0.960947
0.141182,-0.960918
0.141671,-0.960889
0.142159,-0.960860
0.142648,-0.960832
0.143136,-0.960803
0.143625,-0.960774
0.144113,-0.960745
0.144602,-0.960717
0.145090,-0.960688
0.145579,-0.960659
0.146067,-0.960630
0.146556,-0.960602
0.147044,-0.960573
0.147533,-0.960544
0.148021,-0.960515
0.148510,-0.960487
0.148999,-0.960458
0.149487,-0.960429
0.149976,-0.960400
0.150464,-0.960372
0.150953,-0.960343
0.151441,-0.960314
0.151930,-0.960285
0.152418,-0.960257
0.152907,-0.960228
0.153395,-0.960199
0.153884,-0.960171
0.154372,-0.960142
0.154861,-0.960113
0.155349,-0.960084
0.155838,-0.960056
0.156326,-0.960027
0.156815,-0.959998
0.157303,-0.959969
0.157792,-0.959940
0.158280,-0.959912
0.158769,-0.959883
0.159257,-0.959854
0.159746,-0.959826
0.160234,-0.959797
0.160723,-0.959768
0.161212,-0.959739
0.161700,-0.959711
0.162189,-0.959682
0.162677,-0.959653
0.163166,-0.959624
0.163654,-0.959596
0.164143,-0.959567
0.164631,-0.959538
0.165120,-0.959509
0.165608,-0.959481
0.166097,-0.959452
0.166585,-0.959423
0.167074,-0.959390
0.167562,-0.959355
0.168051,-0.959321
0.168539,-0.959286
0.169028,-0.959252
0.169516,-0.959218
0.170005,-0.959183
0.170493,-0.959149
0.170982,-0.959115
0.171470,-0.959080
0.171959,-0.959046
0.172447,-0.959011
0.172936,-0.958977
0.173425,-0.958943
0.173913,-0.958908
0.174402,-0.958874
0.174890,-0.958839
0.175379,-0.958805
0.175867,-0.958771
0.176356,-0.958736
0.176844,-0.958702
0.177333,-0.958668
0.177821,-0.958633
0.178310,-0.958599
0.178798,-0.958564
0.179287,-0.958530
0.179775,-0.958496
0.180264,-0.958461
0.180752,-0.958427
0.181241,-0.958393
0.181729,-0.958358
0.182218,-0.958324
0.182706,-0.958289
0.183195,-0.958255
0.183683,-0.958221
0.184172,-0.958186
0.184660,-0.958152
0.185149,-0.958117
0.185638,-0.958083
0.186126,-0.958049
0.186615,-0.958014
0.187103,-0.957980
0.187592,-0.957946
0.188080,-0.957911
0.188569,-0.957877
0.189057,-0.957842
0.189546,-0.957808
0.190034,-0.957774
0.190523,-0.957739
0.191011,-0.957705
0.191500,-0.957670
0.191988,-0.957636
0.192477,-0.957602
0.192965,-0.957567
0.193454,-0.957533
0.193942,-0.957499
0.194431,-0.957464
0.194919,-0.957430
0.195408,-0.957395
0.195896,-0.957361
0.196385,-0.957327
0.196873,-0.957292
0.197362,-0.957258
0.197851,-0.957223
0.198339,-0.957189
0.198828,-0.957155
0.199316,-0.957120
0.199805,-0.957086
0.200293,-0.957062
0.200782,-0.957044
0.201270,-0.957027
0.201759,-0.957009
0.202247,-0.956992
0.202736,-0.956974
0.203224,-0.956957
0.203713,-0.956939
0.204201,-0.956921
0.204690,-0.956904
0.205178,-0.956886
0.205667,-0.956869
0.206155,-0.956851
0.206644,-0.956834
0.207132,-0.956816
0.207621,-0.956799
0.208109,-0.956781
0.208598,-0.956764
0.209086,-0.956746
0.209575,-0.956729
0.210064,-0.956711
0.210552,-0.956694
0.211041,-0.956676
0.211529,-0.956658
0.212018,-0.956641
0.212506,-0.956623
0.212995,-0.956606
0.213483,-0.956588
0.213972,-0.956571
0.214460,-0.956553
0.214949,-0.956536
0.215437,-0.956518
0.215926,-0.956501
0.216414,-0.956483
0.216903,-0.956466
0.217391,-0.956448
0.217880,-0.956431
0.218368,-0.956413
0.218857,-0.956396
0.219345,-0.956378
0.219834,-0.956361
0.220322,-0.956343
0.220811,-0.956325
0.221299,-0.956308
0.221788,-0.956290
0.222277,-0.956273
0.222765,-0.956255
0.223254,-0.956238
0.223742,-0.956220
0.224231,-0.956203
0.224719,-0.956185
0.225208,-0.956168
0.225696,-0.956150
0.226185,-0.956133
0.226673,-0.956115
0.227162,-0.956098
0.227650,-0.956080
0.228139,-0.956063
0.228627,-0.956045
0.229116,-0.956027
0.229604,-0.956010
0.230093,-0.955992
0.230581,-0.955975
0.231070,-0.955957
0.231558,-0.955940
0.232047,-0.955922
0.232535,-0.955905
0.233024,-0.955887
0.233512,-0.955902
0.234001,-0.955971
0.234489,-0.956041
0.234978,-0.956111
0.235467,-0.956181
0.235955,-0.956250
0.236444,-0.956320
0.236932,-0.956390
0.237421,-0.956460
0.237909,-0.956529
0.238398,-0.956599
0.238886,-0.956669
0.239375,-0.956739
0.239863,-0.956808
0.240352,-0.956878
0.240840,-0.956948
0.241329,-0.957017
0.241817,-0.957087
0.242306,-0.957157
0.242794,-0.957227
0.243283,-0.957296
0.243771,-0.957366
0.244260,-0.957436
0.244748,-0.957506
0.245237,-0.957575
0.245725,-0.957645
0.246214,-0.957715
0.246702,-0.957785
0.247191,-0.957854
0.247680,-0.957924
0.248168,-0.957994
0.248657,-0.958064
0.249145,-0.958133
0.249634,-0.958203
0.250122,-0.958273
0.250611,-0.958342
0.251099,-0.958412
0.251588,-0.958482
0.252076,-0.958552
0.252565,-0.958621
0.253053,-0.958691
0.253542,-0.958761
0.254030,-0.958831
0.254519,-0.958900
0.255007,-0.958970
0.255496,-0.959040
0.255984,-0.959110
0.256473,-0.959179
0.256961,-0.959249
0.257450,-0.959319
0.257938,-0.959389
0.258427,-0.959458
0.258915,-0.959528
0.259404,-0.959598
0.259893,-0.959668
0.260381,-0.959737
0.260870,-0.959807
0.261358,-0.959877
0.261847,-0.959946
0.262335,-0.960016
0.262824,-0.960086
0.263312,-0.960156
0.263801,-0.960225
0.264289,-0.960295
0.264778,-0.960365
0.265266,-0.960435
0.265755,-0.960504
0.266243,-0.960574
0.266732,-0.960653
0.267220,-0.960791
0.267709,-0.960929
0.268197,-0.961066
0.268686,-0.961204
0.269174,-0.961342
0.269663,-0.961480
0.270151,-0.961618
0.270640,-0.961756
0.271128,-0.961893
0.271617,-0.962031
0.272106,-0.962169
0.272594,-0.962307
0.273083,-0.962445
0.273571,-0.962582
0.274060,-0.962720
0.274548,-0.962858
0.275037,-0.962996
0.275525,-0.963134
0.276014,-0.963272
0.276502,-0.963409
0.276991,-0.963547
0.277479,-0.963685
0.277968,-0.963823
0.278456,-0.963961
0.278945,-0.964099
0.279433,-0.964236
0.279922,-0.964374
0.280410,-0.964512
0.280899,-0.964650
0.281387,-0.964788
0.281876,-0.964926
0.282364,-0.965063
0.282853,-0.965201
0.283341,-0.965339
0.283830,-0.965477
0.284319,-0.965615
0.284807,-0.965752
0.285296,-0.965890
0.285784,-0.966028
0.286273,-0.966166
0.286761,-0.966304
0.287250,-0.966442
0.287738,-0.966579
0.288227,-0.966717
0.288715,-0.966855
0.289204,-0.966993
0.289692,-0.967131
0.290181,-0.967269
0.290669,-0.967406
0.291158,-0.967544
0.291646,-0.967682
0.292135,-0.967820
0.292623,-0.967958
0.293112,-0.968095
0.293600,-0.968233
0.294089,-0.968371
0.294577,-0.968509
0.295066,-0.968647
0.295554,-0.968785
0.296043,-0.968922
0.296532,-0.969060
0.297020,-0.969198
0.297509,-0.969336
0.297997,-0.969474
0.298486,-0.969612
0.298974,-0.969749
0.299463,-0.969887
0.299951,-0.970025
0.300440,-0.970831
0.300928,-0.971035
0.301417,-0.971239
0.301905,-0.971443
0.302394,-0.971647
0.302882,-0.971851
0.303371,-0.972055
0.303859,-0.972260
0.304348,-0.972464
0.304836,-0.972668
0.305325,-0.972872
0.305813,-0.973076
0.306302,-0.973280
0.306790,-0.973484
0.307279,-0.973688
0.307767,-0.973893
0.308256,-0.974097
0.308745,-0.974301
0.309233,-0.974505
0.309722,-0.974709
0.310210,-0.974913
0.310699,-0.975117
0.311187,-0.975322
0.311676,-0.975526
0.312164,-0.975730
0.312653,-0.975934
0.313141,-0.976138
0.313630,-0.976342
0.314118,-0.976546
0.314607,-0.976750
0.315095,-0.976955
0.315584,-0.977159
0.316072,-0.977363
0.316561,-0.977567
0.317049,-0.977801
0.317538,-0.978043
0.318026,-0.978285
0.318515,-0.978527
0.319003,-0.978769
0.319492,-0.979011
0.319980,-0.979253
0.320469,-0.979495
0.320957,-0.979737
0.321446,-0.979979
0.321935,-0.980220
0.322423,-0.980462
0.322912,-0.980704
0.323400,-0.980946
0.323889,-0.981188
0.324377,-0.981430
0.324866,-0.981672
0.325354,-0.981914
0.325843,-0.982156
0.326331,-0.982398
0.326820,-0.982640
0.327308,-0.982882
0.327797,-0.983124
0.328285,-0.983366
0.328774,-0.983608
0.329262,-0.983850
0.329751,-0.984092
0.330239,-0.984334
0.330728,-0.984576
0.331216,-0.984818
0.331705,-0.985060
0.332193,-0.985302
0.332682,-0.985544
0.333170,-0.985786
0.333659,-0.985992
0.334148,-0.986169
0.334636,-0.986347
0.335125,-0.986525
0.335613,-0.986703
0.336102,-0.986880
0.336590,-0.987058
0.337079,-0.987236
0.337567,-0.987414
0.338056,-0.987591
0.338544,-0.987769
0.339033,-0.987947
0.339521,-0.988125
0.340010,-0.988303
0.340498,-0.988480
0.340987,-0.988658
0.341475,-0.988836
0.341964,-0.988787
0.342452,-0.988582
0.342941,-0.988377
0.343429,-0.988171
0.343918,-0.987966
0.344406,-0.987761
0.344895,-0.987556
0.345383,-0.987350
0.345872,-0.987054
0.346361,-0.985698
0.346849,-0.984341
0.347338,-0.982985
0.347826,-0.981629
0.348315,-0.980273
0.348803,-0.978916
0.349292,-0.977560
0.349780,-0.976204
0.350269,-0.972853
0.350757,-0.967869
0.351246,-0.962885
0.351734,-0.957902
0.352223,-0.952918
0.352711,-0.947934
0.353200,-0.942951
0.353688,-0.937967
0.354177,-0.932871
0.354665,-0.921420
0.355154,-0.909969
0.355642,-0.898519
0.356131,-0.887068
0.356619,-0.869608
0.357108,-0.850212
0.357596,-0.830817
0.358085,-0.811421
0.358574,-0.786277
0.359062,-0.755192
0.359551,-0.724107
0.360039,-0.693022
0.360528,-0.658574
0.361016,-0.612682
0.361505,-0.566789
0.361993,-0.520896
0.362482,-0.475004
0.362970,-0.415243
0.363459,-0.354942
0.363947,-0.294640
0.364436,-0.234339
0.364924,-0.168504
0.365413,-0.100273
0.365901,-0.032043
0.366390,0.036188
0.366878,0.103157
0.367367,0.168476
0.367855,0.233795
0.368344,0.299114
0.368832,0.362400
0.369321,0.415669
0.369809,0.468938
0.370298,0.522207
0.370787,0.575476
0.371275,0.614981
0.371764,0.653027
0.372252,0.691072
0.372741,0.729118
0.373229,0.758612
0.373718,0.783286
0.374206,0.807961
0.374695,0.832635
0.375183,0.853690
0.375672,0.868713
0.376160,0.883736
0.376649,0.898759
0.377137,0.913096
0.377626,0.921904
0.378114,0.930712
0.378603,0.939520
0.379091,0.948328
0.379580,0.953963
0.380068,0.959019
0.380557,0.964076
0.381045,0.969132
0.381534,0.972918
0.382022,0.975790
0.382511,0.978662
0.383000,0.981533
0.383488,0.983903
0.383977,0.985150
0.384465,0.986397
0.384954,0.987645
0.385442,0.988892
0.385931,0.990139
0.386419,0.991387
0.386908,0.992634
0.387396,0.993881
0.387885,0.994399
0.388373,0.994720
0.388862,0.995042
0.389350,0.995363
0.389839,0.995684
0.390327,0.996005
0.390816,0.996327
0.391304,0.996648
0.391793,0.996863
0.392281,0.996776
0.392770,0.996689
0.393258,0.996602
0.393747,0.996515
0.394235,0.996428
0.394724,0.996340
0.395213,0.996253
0.395701,0.996166
0.396190,0.995796
0.396678,0.995321
0.397167,0.994846
0.397655,0.994371
0.398144,0.993896
0.398632,0.993421
0.399121,0.992946
0.399609,0.992471
0.400098,0.991836
0.400586,0.990562
0.401075,0.989288
0.401563,0.988015
0.402052,0.986741
0.402540,0.985467
0.403029,0.984193
0.403517,0.982919
0.404006,0.981645
0.404494,0.979025
0.404983,0.975745
0.405471,0.972465
0.405960,0.969184
0.406448,0.965904
0.406937,0.962624
0.407426,0.959343
0.407914,0.956063
0.408403,0.953192
0.408891,0.946812
0.409380,0.940431
0.409868,0.934051
0.410357,0.927671
0.410845,0.918053
0.411334,0.907982
0.411822,0.897911
0.412311,0.887839
0.412799,0.874386
0.413288,0.858794
0.413776,0.843202
0.414265,0.827610
0.414753,0.809315
0.415242,0.785956
0.415730,0.762598
0.416219,0.739239
0.416707,0.715053
0.417196,0.681771
0.417684,0.648489
0.418173,0.615207
0.418661,0.581926
0.419150,0.539732
0.419638,0.495565
0.420127,0.451398
0.420616,0.407231
0.421104,0.357955
0.421593,0.304568
0.422081,0.251181
0.422570,0.197794
0.423058,0.143157
0.423547,0.085453
0.424035,0.027749
0.424524,-0.029956
0.425012,-0.087599
0.425501,-0.142882
0.425989,-0.198165
0.426478,-0.253448
0.426966,-0.308730
0.427455,-0.357844
0.427943,-0.405013
0.428432,-0.452183
0.428920,-0.499353
0.429409,-0.541200
0.429897,-0.577637
0.430386,-0.614073
0.430874,-0.650509
0.431363,-0.684541
0.431851,-0.710576
0.432340,-0.736611
0.432829,-0.762646
0.433317,-0.788681
0.433806,-0.806535
0.434294,-0.824106
0.434783,-0.841677
0.435271,-0.859249
0.435760,-0.872482
0.436248,-0.883873
0.436737,-0.895265
0.437225,-0.906657
0.437714,-0.916205
0.438202,-0.923383
0.438691,-0.930560
0.439179,-0.937738
0.439668,-0.944439
0.440156,-0.948863
0.440645,-0.953286
0.441133,-0.957709
0.441622,-0.962132
0.442110,-0.963694
0.442599,-0.965877
0.443087,-0.968061
0.443576,-0.970245
0.444064,-0.972428
0.444553,-0.974612
0.445042,-0.976796
0.445530,-0.978979
0.446019,-0.980608
0.446507,-0.981329
0.446996,-0.982050
0.447484,-0.982771
0.447973,-0.983492
0.448461,-0.984213
0.448950,-0.984934
0.449438,-0.985654
0.449927,-0.986375
0.450415,-0.986626
0.450904,-0.986795
0.451392,-0.986963
0.451881,-0.987131
0.452369,-0.987299
0.452858,-0.987468
0.453346,-0.987636
0.453835,-0.987804
0.454323,-0.987909
0.454812,-0.987879
0.455300,-0.987849
0.455789,-0.987820
0.456277,-0.987790
0.456766,-0.987760
0.457255,-0.987731
0.457743,-0.987701
0.458232,-0.987671
0.458720,-0.987520
0.459209,-0.987424
0.459697,-0.987328
0.460186,-0.987232
0.460674,-0.987136
0.461163,-0.987040
0.461651,-0.986944
0.462140,-0.986847
0.462628,-0.986751
0.463117,-0.986655
0.463605,-0.986559
0.464094,-0.986463
0.464582,-0.986367
0.465071,-0.986271
0.465559,-0.986175
0.466048,-0.986079
0.466536,-0.985983
0.467025,-0.985883
0.467513,-0.985783
0.468002,-0.985683
0.468490,-0.985582
0.468979,-0.985482
0.469468,-0.985381
0.469956,-0.985281
0.470445,-0.985181
0.470933,-0.985080
0.471422,-0.984980
0.471910,-0.984880
0.472399,-0.984779
0.472887,-0.984679
0.473376,-0.984579
0.473864,-0.984478
0.474353,-0.984378
0.474841,-0.984277
0.475330,-0.984193
0.475818,-0.984115
0.476307,-0.984038
0.476795,-0.983961
0.477284,-0.983883
0.477772,-0.983806
0.478261,-0.983728
0.478749,-0.983651
0.479238,-0.983574
0.479726,-0.983496
0.480215,-0.983419
0.480703,-0.983342
0.481192,-0.983264
0.481681,-0.983187
0.482169,-0.983109
0.482658,-0.983032
0.483146,-0.982955
0.483635,-0.982873
0.484123,-0.982839
0.484612,-0.982806
0.485100,-0.982772
0.485589,-0.982738
0.486077,-0.982704
0.486566,-0.982671
0.487054,-0.982637
0.487543,-0.982603
0.488031,-0.982570
0.488520,-0.982536
0.489008,-0.982502
0.489497,-0.982468
0.489985,-0.982435
0.490474,-0.982401
